Text:  COUPLE OF HOURS THEY ACTUALLY START PICKING UP THE SIGNAL BECAUSE THE SOVIETS MADE SPUTNIK VERY EASY TO TRACK IT WAS RIGHT AT 20 MHZ SO YOU COULD PICK IT UP REALLY EASILY BECAUSE THEY WERE AFRAID THAT PEOPLE WOULD THINK IT WAS HOAX BASICALLY SO THEY MADE IT REALLY EASY TO 
Conf:  4
Ref:   0af00UcTO-c

FRAME 	X 	Y 	W 	H 
020438 	0.352 	0.125 	0.085 	0.238 
020439 	0.358 	0.121 	0.085 	0.244 
020440 	0.364 	0.123 	0.083 	0.246 
020441 	0.369 	0.126 	0.087 	0.241 
020442 	0.370 	0.146 	0.083 	0.210 
020443 	0.375 	0.146 	0.083 	0.210 
020444 	0.379 	0.147 	0.083 	0.207 
020445 	0.386 	0.120 	0.088 	0.240 
020446 	0.391 	0.120 	0.088 	0.238 
020447 	0.396 	0.125 	0.089 	0.238 
020448 	0.403 	0.126 	0.087 	0.237 
020449 	0.413 	0.124 	0.087 	0.237 
020450 	0.422 	0.125 	0.088 	0.238 
020451 	0.427 	0.149 	0.084 	0.203 
020452 	0.432 	0.146 	0.084 	0.206 
020453 	0.441 	0.142 	0.084 	0.207 
020454 	0.446 	0.139 	0.085 	0.208 
020455 	0.449 	0.136 	0.086 	0.208 
020456 	0.455 	0.140 	0.085 	0.203 
020457 	0.459 	0.139 	0.085 	0.208 
020458 	0.465 	0.117 	0.086 	0.234 
020459 	0.468 	0.112 	0.086 	0.237 
020460 	0.473 	0.127 	0.084 	0.214 
020461 	0.476 	0.132 	0.085 	0.210 
020462 	0.477 	0.130 	0.087 	0.209 
020463 	0.478 	0.132 	0.087 	0.207 
020464 	0.478 	0.132 	0.088 	0.207 
020465 	0.479 	0.134 	0.087 	0.206 
020466 	0.479 	0.136 	0.087 	0.205 
020467 	0.479 	0.137 	0.087 	0.203 
020468 	0.479 	0.141 	0.086 	0.203 
020469 	0.479 	0.141 	0.085 	0.205 
020470 	0.481 	0.143 	0.083 	0.208 
020471 	0.481 	0.142 	0.083 	0.210 
020472 	0.482 	0.143 	0.082 	0.208 
020473 	0.482 	0.143 	0.081 	0.204 
020474 	0.482 	0.143 	0.079 	0.209 
020475 	0.481 	0.146 	0.079 	0.210 
020476 	0.480 	0.148 	0.078 	0.208 
020477 	0.478 	0.150 	0.078 	0.202 
020478 	0.478 	0.149 	0.079 	0.199 
020479 	0.477 	0.148 	0.080 	0.202 
020480 	0.476 	0.148 	0.081 	0.201 
020481 	0.475 	0.147 	0.083 	0.205 
020482 	0.476 	0.147 	0.082 	0.205 
020483 	0.475 	0.147 	0.081 	0.207 
020484 	0.474 	0.149 	0.083 	0.204 
020485 	0.476 	0.146 	0.084 	0.209 
020486 	0.476 	0.148 	0.085 	0.208 
020487 	0.477 	0.147 	0.085 	0.204 
020488 	0.478 	0.148 	0.086 	0.201 
020489 	0.479 	0.148 	0.087 	0.201 
020490 	0.481 	0.149 	0.086 	0.203 
020491 	0.484 	0.150 	0.087 	0.202 
020492 	0.487 	0.152 	0.088 	0.200 
020493 	0.496 	0.152 	0.083 	0.203 
020494 	0.501 	0.155 	0.079 	0.202 
020495 	0.504 	0.153 	0.080 	0.205 
020496 	0.506 	0.151 	0.080 	0.206 
020497 	0.508 	0.155 	0.083 	0.197 
020498 	0.508 	0.151 	0.083 	0.201 
020499 	0.510 	0.152 	0.082 	0.201 
020500 	0.510 	0.151 	0.084 	0.199 
020501 	0.510 	0.150 	0.086 	0.195 
020502 	0.511 	0.147 	0.086 	0.199 
020503 	0.511 	0.143 	0.086 	0.203 
020504 	0.512 	0.144 	0.082 	0.207 
020505 	0.511 	0.123 	0.086 	0.239 
020506 	0.510 	0.123 	0.087 	0.236 
020507 	0.510 	0.147 	0.086 	0.202 
020508 	0.509 	0.126 	0.088 	0.233 
020509 	0.510 	0.143 	0.084 	0.208 
020510 	0.508 	0.142 	0.084 	0.205 
020511 	0.507 	0.139 	0.084 	0.204 
020512 	0.506 	0.139 	0.083 	0.205 
020513 	0.504 	0.140 	0.083 	0.206 
020514 	0.504 	0.139 	0.083 	0.208 
020515 	0.504 	0.141 	0.081 	0.211 
020516 	0.503 	0.143 	0.083 	0.209 
020517 	0.504 	0.144 	0.083 	0.209 
020518 	0.503 	0.145 	0.083 	0.211 
020519 	0.505 	0.146 	0.080 	0.209 
020520 	0.506 	0.149 	0.079 	0.205 
020521 	0.507 	0.152 	0.079 	0.204 
020522 	0.508 	0.154 	0.078 	0.205 
020523 	0.509 	0.157 	0.078 	0.204 
020524 	0.508 	0.159 	0.080 	0.203 
020525 	0.508 	0.159 	0.081 	0.203 
020526 	0.509 	0.159 	0.080 	0.202 
020527 	0.508 	0.158 	0.081 	0.203 
020528 	0.508 	0.158 	0.083 	0.203 
020529 	0.508 	0.156 	0.082 	0.202 
020530 	0.508 	0.154 	0.081 	0.204 
020531 	0.508 	0.154 	0.082 	0.205 
020532 	0.508 	0.153 	0.081 	0.205 
020533 	0.508 	0.152 	0.081 	0.203 
020534 	0.507 	0.151 	0.081 	0.207 
020535 	0.506 	0.148 	0.081 	0.208 
020536 	0.506 	0.147 	0.079 	0.209 
020537 	0.506 	0.146 	0.079 	0.206 
020538 	0.506 	0.147 	0.080 	0.206 
020539 	0.504 	0.147 	0.082 	0.205 
020540 	0.503 	0.151 	0.082 	0.201 
020541 	0.503 	0.152 	0.083 	0.201 
020542 	0.502 	0.153 	0.082 	0.201 
020543 	0.496 	0.125 	0.091 	0.243 
020544 	0.495 	0.126 	0.091 	0.245 
020545 	0.495 	0.127 	0.091 	0.244 
020546 	0.496 	0.127 	0.091 	0.245 
020547 	0.497 	0.130 	0.092 	0.240 
020548 	0.500 	0.132 	0.092 	0.239 
020549 	0.502 	0.132 	0.093 	0.238 
020550 	0.507 	0.130 	0.093 	0.239 
020551 	0.511 	0.128 	0.094 	0.241 
020552 	0.513 	0.130 	0.097 	0.231 
020553 	0.522 	0.129 	0.095 	0.232 
020554 	0.528 	0.154 	0.085 	0.198 
020555 	0.532 	0.154 	0.085 	0.202 
020556 	0.535 	0.153 	0.084 	0.201 
020557 	0.539 	0.153 	0.086 	0.203 
020558 	0.543 	0.127 	0.093 	0.236 
020559 	0.547 	0.128 	0.092 	0.238 
020560 	0.551 	0.130 	0.090 	0.239 
020561 	0.555 	0.136 	0.089 	0.229 
020562 	0.559 	0.149 	0.086 	0.205 
020563 	0.564 	0.151 	0.085 	0.203 
020564 	0.568 	0.152 	0.087 	0.199 
020565 	0.575 	0.143 	0.085 	0.213 
020566 	0.580 	0.141 	0.086 	0.214 
020567 	0.586 	0.145 	0.085 	0.205 
020568 	0.591 	0.146 	0.085 	0.205 
020569 	0.596 	0.148 	0.085 	0.203 
020570 	0.604 	0.143 	0.085 	0.211 
020571 	0.608 	0.145 	0.085 	0.210 
020572 	0.612 	0.147 	0.082 	0.208 
020573 	0.615 	0.148 	0.082 	0.210 
020574 	0.616 	0.151 	0.082 	0.209 
020575 	0.619 	0.153 	0.081 	0.207 
020576 	0.620 	0.153 	0.082 	0.210 
020577 	0.622 	0.150 	0.082 	0.208 
020578 	0.627 	0.133 	0.079 	0.241 
020579 	0.632 	0.134 	0.078 	0.240 
020580 	0.632 	0.133 	0.079 	0.239 
020581 	0.632 	0.134 	0.079 	0.236 
020582 	0.623 	0.158 	0.082 	0.206 
020583 	0.620 	0.159 	0.081 	0.207 
020584 	0.615 	0.162 	0.081 	0.206 
020585 	0.611 	0.164 	0.078 	0.210 
020586 	0.605 	0.168 	0.077 	0.208 
020587 	0.597 	0.174 	0.078 	0.205 
020588 	0.592 	0.174 	0.077 	0.208 
020589 	0.586 	0.177 	0.079 	0.206 
020590 	0.582 	0.175 	0.078 	0.210 
020591 	0.577 	0.178 	0.079 	0.208 
020592 	0.572 	0.186 	0.080 	0.203 
020593 	0.571 	0.188 	0.081 	0.203 
020594 	0.571 	0.186 	0.080 	0.206 
020595 	0.570 	0.186 	0.080 	0.206 
020596 	0.568 	0.183 	0.080 	0.207 
020597 	0.565 	0.184 	0.081 	0.206 
020598 	0.563 	0.180 	0.080 	0.210 
020599 	0.563 	0.179 	0.078 	0.211 
020600 	0.560 	0.176 	0.081 	0.213 
020601 	0.559 	0.173 	0.080 	0.212 
020602 	0.557 	0.173 	0.079 	0.211 
020603 	0.555 	0.168 	0.081 	0.213 
020604 	0.554 	0.168 	0.081 	0.212 
020605 	0.552 	0.164 	0.082 	0.214 
020606 	0.551 	0.165 	0.083 	0.213 
020607 	0.549 	0.166 	0.083 	0.207 
020608 	0.548 	0.166 	0.081 	0.205 
020609 	0.544 	0.167 	0.082 	0.202 
020610 	0.540 	0.161 	0.084 	0.206 
020611 	0.537 	0.158 	0.083 	0.204 
020612 	0.535 	0.156 	0.082 	0.204 
020613 	0.533 	0.155 	0.083 	0.206 
020614 	0.530 	0.155 	0.083 	0.206 
020615 	0.529 	0.153 	0.081 	0.208 
020616 	0.528 	0.151 	0.079 	0.212 
020617 	0.526 	0.149 	0.080 	0.212 
020618 	0.524 	0.151 	0.079 	0.213 
020619 	0.521 	0.152 	0.079 	0.212 
020620 	0.518 	0.153 	0.078 	0.211 
020621 	0.518 	0.153 	0.078 	0.212 
020622 	0.516 	0.154 	0.080 	0.211 
020623 	0.515 	0.154 	0.080 	0.214 
020624 	0.513 	0.158 	0.081 	0.213 
020625 	0.514 	0.159 	0.081 	0.211 
020626 	0.513 	0.161 	0.080 	0.207 
020627 	0.513 	0.165 	0.081 	0.212 
020628 	0.513 	0.164 	0.081 	0.217 
020629 	0.514 	0.166 	0.081 	0.216 
020630 	0.514 	0.165 	0.081 	0.218 
020631 	0.515 	0.166 	0.082 	0.216 
020632 	0.516 	0.167 	0.082 	0.211 
020633 	0.516 	0.166 	0.082 	0.207 
020634 	0.521 	0.143 	0.080 	0.239 
020635 	0.521 	0.143 	0.082 	0.236 
020636 	0.522 	0.156 	0.082 	0.215 
020637 	0.524 	0.153 	0.082 	0.217 
020638 	0.525 	0.153 	0.082 	0.215 
020639 	0.527 	0.153 	0.082 	0.213 
020640 	0.529 	0.155 	0.080 	0.211 
020641 	0.529 	0.156 	0.080 	0.208 
020642 	0.529 	0.156 	0.080 	0.211 
020643 	0.529 	0.156 	0.082 	0.210 
020644 	0.528 	0.158 	0.083 	0.206 
020645 	0.529 	0.156 	0.084 	0.208 
020646 	0.529 	0.156 	0.084 	0.202 
020647 	0.530 	0.153 	0.084 	0.204 
020648 	0.530 	0.152 	0.085 	0.204 
020649 	0.530 	0.149 	0.085 	0.204 
020650 	0.530 	0.146 	0.085 	0.205 
020651 	0.530 	0.144 	0.085 	0.208 
020652 	0.530 	0.141 	0.085 	0.206 
020653 	0.531 	0.140 	0.084 	0.208 
020654 	0.531 	0.141 	0.084 	0.209 
020655 	0.532 	0.143 	0.083 	0.211 
020656 	0.532 	0.150 	0.084 	0.206 
020657 	0.532 	0.154 	0.085 	0.205 
020658 	0.533 	0.158 	0.085 	0.202 
020659 	0.533 	0.155 	0.085 	0.206 
020660 	0.535 	0.160 	0.085 	0.202 
020661 	0.536 	0.159 	0.084 	0.207 
020662 	0.538 	0.158 	0.083 	0.206 
020663 	0.537 	0.157 	0.083 	0.207 
020664 	0.537 	0.158 	0.083 	0.207 
020665 	0.536 	0.158 	0.084 	0.208 
020666 	0.536 	0.159 	0.084 	0.208 
020667 	0.535 	0.160 	0.083 	0.211 
020668 	0.534 	0.159 	0.082 	0.210 
020669 	0.533 	0.161 	0.082 	0.205 
020670 	0.535 	0.161 	0.080 	0.203 
020671 	0.533 	0.158 	0.081 	0.206 
020672 	0.534 	0.158 	0.079 	0.204 
020673 	0.533 	0.156 	0.079 	0.208 
020674 	0.533 	0.157 	0.078 	0.207 
020675 	0.532 	0.158 	0.077 	0.208 
020676 	0.530 	0.154 	0.078 	0.211 
020677 	0.529 	0.150 	0.077 	0.210 
020678 	0.528 	0.150 	0.078 	0.206 
020679 	0.526 	0.150 	0.079 	0.209 
020680 	0.524 	0.154 	0.079 	0.208 
020681 	0.523 	0.159 	0.079 	0.204 
020682 	0.519 	0.163 	0.078 	0.200 
020683 	0.519 	0.163 	0.078 	0.202 
020684 	0.518 	0.161 	0.078 	0.206 
020685 	0.518 	0.158 	0.078 	0.202 
020686 	0.517 	0.161 	0.078 	0.198 
020687 	0.517 	0.166 	0.079 	0.195 
020688 	0.517 	0.168 	0.077 	0.197 
020689 	0.517 	0.170 	0.077 	0.206 
020690 	0.518 	0.168 	0.076 	0.208 
020691 	0.518 	0.166 	0.076 	0.208 
020692 	0.518 	0.164 	0.076 	0.211 
020693 	0.517 	0.164 	0.077 	0.205 
020694 	0.517 	0.165 	0.078 	0.202 
020695 	0.517 	0.165 	0.079 	0.201 
020696 	0.517 	0.165 	0.080 	0.199 
020697 	0.518 	0.165 	0.079 	0.200 
020698 	0.518 	0.165 	0.079 	0.201 
020699 	0.520 	0.165 	0.077 	0.201 
020700 	0.523 	0.165 	0.079 	0.199 
020701 	0.521 	0.166 	0.082 	0.195 
020702 	0.521 	0.164 	0.084 	0.196 
020703 	0.523 	0.163 	0.085 	0.201 
020704 	0.525 	0.162 	0.085 	0.203 
020705 	0.527 	0.161 	0.086 	0.204 
020706 	0.529 	0.160 	0.087 	0.206 
020707 	0.532 	0.162 	0.086 	0.205 
020708 	0.532 	0.163 	0.088 	0.202 
020709 	0.535 	0.166 	0.087 	0.202 
020710 	0.537 	0.168 	0.086 	0.202 
020711 	0.539 	0.169 	0.086 	0.203 
020712 	0.543 	0.170 	0.085 	0.203 
020713 	0.548 	0.170 	0.083 	0.203 
020714 	0.548 	0.173 	0.085 	0.204 
020715 	0.549 	0.176 	0.084 	0.203 
020716 	0.550 	0.175 	0.083 	0.203 
020717 	0.549 	0.178 	0.083 	0.201 
020718 	0.547 	0.177 	0.085 	0.203 
020719 	0.547 	0.181 	0.083 	0.197 
020720 	0.540 	0.182 	0.087 	0.196 
020721 	0.540 	0.182 	0.087 	0.197 
020722 	0.539 	0.182 	0.087 	0.197 
020723 	0.540 	0.182 	0.086 	0.197 
020724 	0.540 	0.177 	0.087 	0.201 
020725 	0.540 	0.177 	0.087 	0.201 
020726 	0.539 	0.174 	0.088 	0.201 
020727 	0.540 	0.174 	0.087 	0.202 
020728 	0.539 	0.175 	0.088 	0.199 
020729 	0.540 	0.176 	0.088 	0.199 
020730 	0.540 	0.180 	0.087 	0.197 
020731 	0.541 	0.179 	0.086 	0.200 
020732 	0.541 	0.182 	0.087 	0.195 
020733 	0.540 	0.183 	0.085 	0.196 
020734 	0.540 	0.183 	0.086 	0.199 
020735 	0.539 	0.185 	0.086 	0.198 
020736 	0.538 	0.185 	0.084 	0.198 
020737 	0.536 	0.180 	0.085 	0.201 
020738 	0.535 	0.180 	0.085 	0.204 
020739 	0.532 	0.180 	0.085 	0.204 
020740 	0.531 	0.182 	0.082 	0.203 
020741 	0.527 	0.183 	0.082 	0.201 

WORD START END ASDSCORE
COUPLE 0.09 0.36 6.8
OF 0.36 0.44 8.9
HOURS 0.44 0.84 10.2
THEY 0.84 0.97 12.1
ACTUALLY 0.97 1.23 13.0
START 1.23 1.51 9.0
PICKING 1.51 1.83 7.0
UP 1.83 1.91 7.6
THE 1.91 2.02 8.0
SIGNAL 2.02 2.37 6.5
BECAUSE 2.37 2.52 6.6
THE 2.52 2.58 7.1
SOVIETS 2.58 3.11 9.6
MADE 3.11 3.48 7.8
SPUTNIK 3.85 4.55 8.2
VERY 4.55 5.09 7.8
EASY 5.09 5.36 5.8
TO 5.36 5.43 5.9
TRACK 5.43 5.86 9.8
IT 5.86 5.92 10.0
WAS 5.92 6.05 9.3
RIGHT 6.05 6.26 7.1
AT 6.26 6.41 7.3
20 6.47 6.88 8.0
MHZ 6.88 7.13 6.6
SO 7.13 7.26 4.9
YOU 7.26 7.45 4.5
COULD 7.45 7.61 4.1
PICK 7.61 7.86 4.2
IT 7.86 8.04 7.3
UP 8.04 8.23 9.3
REALLY 8.23 8.47 9.9
EASILY 8.47 8.67 10.3
BECAUSE 8.67 8.97 8.5
THEY 8.97 9.04 6.0
WERE 9.04 9.16 6.4
AFRAID 9.16 9.40 6.7
THAT 9.40 9.50 6.1
PEOPLE 9.50 9.71 5.9
WOULD 9.71 9.82 6.9
THINK 9.82 9.94 7.3
IT 9.94 10.00 7.3
WAS 10.00 10.10 7.3
HOAX 10.13 10.52 7.9
BASICALLY 10.52 10.90 6.2
SO 10.90 11.02 6.9
THEY 11.02 11.10 8.0
MADE 11.10 11.24 8.4
IT 11.24 11.32 8.3
REALLY 11.32 11.64 7.1
EASY 11.64 11.86 7.8
TO 11.86 12.04 7.7
